#      z (A) rho (1e-6/A2) irho (1e-6/A2)
-169.56247089   6.24201041   0.00000000
-169.46247089   6.24199300   0.00000000
-169.36247089   6.24197550   0.00000000
-169.26247089   6.24195790   0.00000000
-169.16247089   6.24194021   0.00000000
-169.06247089   6.24192242   0.00000000
-168.96247089   6.24190455   0.00000000
-168.86247089   6.24188657   0.00000000
-168.76247089   6.24186850   0.00000000
-168.66247089   6.24185034   0.00000000
-168.56247089   6.24183208   0.00000000
-168.46247089   6.24181372   0.00000000
-168.36247089   6.24179526   0.00000000
-168.26247089   6.24177671   0.00000000
-168.16247089   6.24175806   0.00000000
-168.06247089   6.24173931   0.00000000
-167.96247089   6.24172047   0.00000000
-167.86247089   6.24170152   0.00000000
-167.76247089   6.24168247   0.00000000
-167.66247089   6.24166332   0.00000000
-167.56247089   6.24164408   0.00000000
-167.46247089   6.24162473   0.00000000
-167.36247089   6.24160528   0.00000000
-167.26247089   6.24158572   0.00000000
-167.16247089   6.24156607   0.00000000
-167.06247089   6.24154631   0.00000000
-166.96247089   6.24152645   0.00000000
-166.86247089   6.24150648   0.00000000
-166.76247089   6.24148641   0.00000000
-166.66247089   6.24146624   0.00000000
-166.56247089   6.24144595   0.00000000
-166.46247089   6.24142557   0.00000000
-166.36247089   6.24140507   0.00000000
-166.26247089   6.24138447   0.00000000
-166.16247089   6.24136376   0.00000000
-166.06247089   6.24134295   0.00000000
-165.96247089   6.24132202   0.00000000
-165.86247089   6.24130099   0.00000000
-165.76247089   6.24127985   0.00000000
-165.66247089   6.24125859   0.00000000
-165.56247089   6.24123723   0.00000000
-165.46247089   6.24121575   0.00000000
-165.36247089   6.24119417   0.00000000
-165.26247089   6.24117247   0.00000000
-165.16247089   6.24115066   0.00000000
-165.06247089   6.24112873   0.00000000
-164.96247089   6.24110670   0.00000000
-164.86247089   6.24108454   0.00000000
-164.76247089   6.24106228   0.00000000
-164.66247089   6.24103990   0.00000000
-164.56247089   6.24101740   0.00000000
-164.46247089   6.24099479   0.00000000
-164.36247089   6.24097206   0.00000000
-164.26247089   6.24094921   0.00000000
-164.16247089   6.24092624   0.00000000
-164.06247089   6.24090316   0.00000000
-163.96247089   6.24087996   0.00000000
-163.86247089   6.24085664   0.00000000
-163.76247089   6.24083320   0.00000000
-163.66247089   6.24080963   0.00000000
-163.56247089   6.24078595   0.00000000
-163.46247089   6.24076215   0.00000000
-163.36247089   6.24073822   0.00000000
-163.26247089   6.24071417   0.00000000
-163.16247089   6.24069000   0.00000000
-163.06247089   6.24066570   0.00000000
-162.96247089   6.24064128   0.00000000
-162.86247089   6.24061674   0.00000000
-162.76247089   6.24059206   0.00000000
-162.66247089   6.24056727   0.00000000
-162.56247089   6.24054234   0.00000000
-162.46247089   6.24051729   0.00000000
-162.36247089   6.24049211   0.00000000
-162.26247089   6.24046681   0.00000000
-162.16247089   6.24044137   0.00000000
-162.06247089   6.24041581   0.00000000
-161.96247089   6.24039011   0.00000000
-161.86247089   6.24036429   0.00000000
-161.76247089   6.24033833   0.00000000
-161.66247089   6.24031224   0.00000000
-161.56247089   6.24028602   0.00000000
-161.46247089   6.24025967   0.00000000
-161.36247089   6.24023318   0.00000000
-161.26247089   6.24020656   0.00000000
-161.16247089   6.24017980   0.00000000
-161.06247089   6.24015291   0.00000000
-160.96247089   6.24012588   0.00000000
-160.86247089   6.24009872   0.00000000
-160.76247089   6.24007142   0.00000000
-160.66247089   6.24004398   0.00000000
-160.56247089   6.24001640   0.00000000
-160.46247089   6.23998868   0.00000000
-160.36247089   6.23996083   0.00000000
-160.26247089   6.23993283   0.00000000
-160.16247089   6.23990469   0.00000000
-160.06247089   6.23987642   0.00000000
-159.96247089   6.23984800   0.00000000
-159.86247089   6.23981943   0.00000000
-159.76247089   6.23979073   0.00000000
-159.66247089   6.23976188   0.00000000
-159.56247089   6.23973288   0.00000000
-159.46247089   6.23970374   0.00000000
-159.36247089   6.23967446   0.00000000
-159.26247089   6.23964502   0.00000000
-159.16247089   6.23961544   0.00000000
-159.06247089   6.23958572   0.00000000
-158.96247089   6.23955584   0.00000000
-158.86247089   6.23952582   0.00000000
-158.76247089   6.23949564   0.00000000
-158.66247089   6.23946532   0.00000000
-158.56247089   6.23943484   0.00000000
-158.46247089   6.23940422   0.00000000
-158.36247089   6.23937344   0.00000000
-158.26247089   6.23934250   0.00000000
-158.16247089   6.23931142   0.00000000
-158.06247089   6.23928018   0.00000000
-157.96247089   6.23924878   0.00000000
-157.86247089   6.23921723   0.00000000
-157.76247089   6.23918553   0.00000000
-157.66247089   6.23915366   0.00000000
-157.56247089   6.23912164   0.00000000
-157.46247089   6.23908946   0.00000000
-157.36247089   6.23905712   0.00000000
-157.26247089   6.23902462   0.00000000
-157.16247089   6.23899196   0.00000000
-157.06247089   6.23895914   0.00000000
-156.96247089   6.23892616   0.00000000
-156.86247089   6.23889302   0.00000000
-156.76247089   6.23885971   0.00000000
-156.66247089   6.23882624   0.00000000
-156.56247089   6.23879260   0.00000000
-156.46247089   6.23875880   0.00000000
-156.36247089   6.23872483   0.00000000
-156.26247089   6.23869070   0.00000000
-156.16247089   6.23865640   0.00000000
-156.06247089   6.23862193   0.00000000
-155.96247089   6.23858729   0.00000000
-155.86247089   6.23855248   0.00000000
-155.76247089   6.23851751   0.00000000
-155.66247089   6.23848236   0.00000000
-155.56247089   6.23844704   0.00000000
-155.46247089   6.23841154   0.00000000
-155.36247089   6.23837588   0.00000000
-155.26247089   6.23834004   0.00000000
-155.16247089   6.23830402   0.00000000
-155.06247089   6.23826783   0.00000000
-154.96247089   6.23823147   0.00000000
-154.86247089   6.23819492   0.00000000
-154.76247089   6.23815820   0.00000000
-154.66247089   6.23812131   0.00000000
-154.56247089   6.23808423   0.00000000
-154.46247089   6.23804697   0.00000000
-154.36247089   6.23800953   0.00000000
-154.26247089   6.23797191   0.00000000
-154.16247089   6.23793411   0.00000000
-154.06247089   6.23789613   0.00000000
-153.96247089   6.23785796   0.00000000
-153.86247089   6.23781961   0.00000000
-153.76247089   6.23778107   0.00000000
-153.66247089   6.23774235   0.00000000
-153.56247089   6.23770344   0.00000000
-153.46247089   6.23766434   0.00000000
-153.36247089   6.23762505   0.00000000
-153.26247089   6.23758558   0.00000000
-153.16247089   6.23754591   0.00000000
-153.06247089   6.23750606   0.00000000
-152.96247089   6.23746601   0.00000000
-152.86247089   6.23742577   0.00000000
-152.76247089   6.23738534   0.00000000
-152.66247089   6.23734471   0.00000000
-152.56247089   6.23730389   0.00000000
-152.46247089   6.23726287   0.00000000
-152.36247089   6.23722166   0.00000000
-152.26247089   6.23718025   0.00000000
-152.16247089   6.23713865   0.00000000
-152.06247089   6.23709684   0.00000000
-151.96247089   6.23705484   0.00000000
-151.86247089   6.23701263   0.00000000
-151.76247089   6.23697022   0.00000000
-151.66247089   6.23692761   0.00000000
-151.56247089   6.23688480   0.00000000
-151.46247089   6.23684179   0.00000000
-151.36247089   6.23679857   0.00000000
-151.26247089   6.23675514   0.00000000
-151.16247089   6.23671151   0.00000000
-151.06247089   6.23666768   0.00000000
-150.96247089   6.23662363   0.00000000
-150.86247089   6.23657938   0.00000000
-150.76247089   6.23653491   0.00000000
-150.66247089   6.23649024   0.00000000
-150.56247089   6.23644535   0.00000000
-150.46247089   6.23640026   0.00000000
-150.36247089   6.23635495   0.00000000
-150.26247089   6.23630942   0.00000000
-150.16247089   6.23626369   0.00000000
-150.06247089   6.23621773   0.00000000
-149.96247089   6.23617156   0.00000000
-149.86247089   6.23612517   0.00000000
-149.76247089   6.23607857   0.00000000
-149.66247089   6.23603174   0.00000000
-149.56247089   6.23598470   0.00000000
-149.46247089   6.23593743   0.00000000
-149.36247089   6.23588995   0.00000000
-149.26247089   6.23584224   0.00000000
-149.16247089   6.23579430   0.00000000
-149.06247089   6.23574615   0.00000000
-148.96247089   6.23569777   0.00000000
-148.86247089   6.23564916   0.00000000
-148.76247089   6.23560032   0.00000000
-148.66247089   6.23555126   0.00000000
-148.56247089   6.23550196   0.00000000
-148.46247089   6.23545244   0.00000000
-148.36247089   6.23540269   0.00000000
-148.26247089   6.23535271   0.00000000
-148.16247089   6.23530249   0.00000000
-148.06247089   6.23525204   0.00000000
-147.96247089   6.23520135   0.00000000
-147.86247089   6.23515043   0.00000000
-147.76247089   6.23509928   0.00000000
-147.66247089   6.23504788   0.00000000
-147.56247089   6.23499625   0.00000000
-147.46247089   6.23494438   0.00000000
-147.36247089   6.23489227   0.00000000
-147.26247089   6.23483992   0.00000000
-147.16247089   6.23478733   0.00000000
-147.06247089   6.23473449   0.00000000
-146.96247089   6.23468141   0.00000000
-146.86247089   6.23462808   0.00000000
-146.76247089   6.23457451   0.00000000
-146.66247089   6.23452070   0.00000000
-146.56247089   6.23446663   0.00000000
-146.46247089   6.23441232   0.00000000
-146.36247089   6.23435776   0.00000000
-146.26247089   6.23430294   0.00000000
-146.16247089   6.23424788   0.00000000
-146.06247089   6.23419256   0.00000000
-145.96247089   6.23413699   0.00000000
-145.86247089   6.23408116   0.00000000
-145.76247089   6.23402508   0.00000000
-145.66247089   6.23396874   0.00000000
-145.56247089   6.23391215   0.00000000
-145.46247089   6.23385530   0.00000000
-145.36247089   6.23379818   0.00000000
-145.26247089   6.23374081   0.00000000
-145.16247089   6.23368317   0.00000000
-145.06247089   6.23362528   0.00000000
-144.96247089   6.23356712   0.00000000
-144.86247089   6.23350869   0.00000000
-144.76247089   6.23345000   0.00000000
-144.66247089   6.23339104   0.00000000
-144.56247089   6.23333182   0.00000000
-144.46247089   6.23327232   0.00000000
-144.36247089   6.23321256   0.00000000
-144.26247089   6.23315253   0.00000000
-144.16247089   6.23309222   0.00000000
-144.06247089   6.23303164   0.00000000
-143.96247089   6.23297079   0.00000000
-143.86247089   6.23290966   0.00000000
-143.76247089   6.23284826   0.00000000
-143.66247089   6.23278658   0.00000000
-143.56247089   6.23272462   0.00000000
-143.46247089   6.23266238   0.00000000
-143.36247089   6.23259987   0.00000000
-143.26247089   6.23253707   0.00000000
-143.16247089   6.23247399   0.00000000
-143.06247089   6.23241062   0.00000000
-142.96247089   6.23234698   0.00000000
-142.86247089   6.23228304   0.00000000
-142.76247089   6.23221882   0.00000000
-142.66247089   6.23215431   0.00000000
-142.56247089   6.23208952   0.00000000
-142.46247089   6.23202443   0.00000000
-142.36247089   6.23195905   0.00000000
-142.26247089   6.23189338   0.00000000
-142.16247089   6.23182742   0.00000000
-142.06247089   6.23176116   0.00000000
-141.96247089   6.23169461   0.00000000
-141.86247089   6.23162776   0.00000000
-141.76247089   6.23156062   0.00000000
-141.66247089   6.23149317   0.00000000
-141.56247089   6.23142543   0.00000000
-141.46247089   6.23135738   0.00000000
-141.36247089   6.23128904   0.00000000
-141.26247089   6.23122039   0.00000000
-141.16247089   6.23115143   0.00000000
-141.06247089   6.23108217   0.00000000
-140.96247089   6.23101261   0.00000000
-140.86247089   6.23094273   0.00000000
-140.76247089   6.23087255   0.00000000
-140.66247089   6.23080206   0.00000000
-140.56247089   6.23073125   0.00000000
-140.46247089   6.23066014   0.00000000
-140.36247089   6.23058871   0.00000000
-140.26247089   6.23051696   0.00000000
-140.16247089   6.23044490   0.00000000
-140.06247089   6.23037253   0.00000000
-139.96247089   6.23029983   0.00000000
-139.86247089   6.23022682   0.00000000
-139.76247089   6.23015349   0.00000000
-139.66247089   6.23007983   0.00000000
-139.56247089   6.23000585   0.00000000
-139.46247089   6.22993155   0.00000000
-139.36247089   6.22985692   0.00000000
-139.26247089   6.22978197   0.00000000
-139.16247089   6.22970669   0.00000000
-139.06247089   6.22963108   0.00000000
-138.96247089   6.22955514   0.00000000
-138.86247089   6.22947887   0.00000000
-138.76247089   6.22940227   0.00000000
-138.66247089   6.22932533   0.00000000
-138.56247089   6.22924806   0.00000000
-138.46247089   6.22917045   0.00000000
-138.36247089   6.22909251   0.00000000
-138.26247089   6.22901423   0.00000000
-138.16247089   6.22893561   0.00000000
-138.06247089   6.22885664   0.00000000
-137.96247089   6.22877734   0.00000000
-137.86247089   6.22869769   0.00000000
-137.76247089   6.22861770   0.00000000
-137.66247089   6.22853736   0.00000000
-137.56247089   6.22845668   0.00000000
-137.46247089   6.22837564   0.00000000
-137.36247089   6.22829426   0.00000000
-137.26247089   6.22821253   0.00000000
-137.16247089   6.22813044   0.00000000
-137.06247089   6.22804800   0.00000000
-136.96247089   6.22796521   0.00000000
-136.86247089   6.22788206   0.00000000
-136.76247089   6.22779856   0.00000000
-136.66247089   6.22771469   0.00000000
-136.56247089   6.22763047   0.00000000
-136.46247089   6.22754589   0.00000000
-136.36247089   6.22746094   0.00000000
-136.26247089   6.22737563   0.00000000
-136.16247089   6.22728996   0.00000000
-136.06247089   6.22720392   0.00000000
-135.96247089   6.22711751   0.00000000
-135.86247089   6.22703073   0.00000000
-135.76247089   6.22694359   0.00000000
-135.66247089   6.22685607   0.00000000
-135.56247089   6.22676818   0.00000000
-135.46247089   6.22667992   0.00000000
-135.36247089   6.22659128   0.00000000
-135.26247089   6.22650227   0.00000000
-135.16247089   6.22641287   0.00000000
-135.06247089   6.22632310   0.00000000
-134.96247089   6.22623295   0.00000000
-134.86247089   6.22614242   0.00000000
-134.76247089   6.22605150   0.00000000
-134.66247089   6.22596020   0.00000000
-134.56247089   6.22586852   0.00000000
-134.46247089   6.22577644   0.00000000
-134.36247089   6.22568398   0.00000000
-134.26247089   6.22559113   0.00000000
-134.16247089   6.22549789   0.00000000
-134.06247089   6.22540425   0.00000000
-133.96247089   6.22531023   0.00000000
-133.86247089   6.22521580   0.00000000
-133.76247089   6.22512098   0.00000000
-133.66247089   6.22502576   0.00000000
-133.56247089   6.22493015   0.00000000
-133.46247089   6.22483413   0.00000000
-133.36247089   6.22473771   0.00000000
-133.26247089   6.22464089   0.00000000
-133.16247089   6.22454366   0.00000000
-133.06247089   6.22444602   0.00000000
-132.96247089   6.22434798   0.00000000
-132.86247089   6.22424953   0.00000000
-132.76247089   6.22415067   0.00000000
-132.66247089   6.22405140   0.00000000
-132.56247089   6.22395171   0.00000000
-132.46247089   6.22385161   0.00000000
-132.36247089   6.22375110   0.00000000
-132.26247089   6.22365017   0.00000000
-132.16247089   6.22354881   0.00000000
-132.06247089   6.22344704   0.00000000
-131.96247089   6.22334485   0.00000000
-131.86247089   6.22324223   0.00000000
-131.76247089   6.22313919   0.00000000
-131.66247089   6.22303572   0.00000000
-131.56247089   6.22293183   0.00000000
-131.46247089   6.22282750   0.00000000
-131.36247089   6.22272275   0.00000000
-131.26247089   6.22261757   0.00000000
-131.16247089   6.22251195   0.00000000
-131.06247089   6.22240590   0.00000000
-130.96247089   6.22229941   0.00000000
-130.86247089   6.22219248   0.00000000
-130.76247089   6.22208512   0.00000000
-130.66247089   6.22197731   0.00000000
-130.56247089   6.22186906   0.00000000
-130.46247089   6.22176037   0.00000000
-130.36247089   6.22165124   0.00000000
-130.26247089   6.22154166   0.00000000
-130.16247089   6.22143163   0.00000000
-130.06247089   6.22132115   0.00000000
-129.96247089   6.22121022   0.00000000
-129.86247089   6.22109884   0.00000000
-129.76247089   6.22098700   0.00000000
-129.66247089   6.22087471   0.00000000
-129.56247089   6.22076197   0.00000000
-129.46247089   6.22064876   0.00000000
-129.36247089   6.22053510   0.00000000
-129.26247089   6.22042097   0.00000000
-129.16247089   6.22030638   0.00000000
-129.06247089   6.22019133   0.00000000
-128.96247089   6.22007581   0.00000000
-128.86247089   6.21995982   0.00000000
-128.76247089   6.21984337   0.00000000
-128.66247089   6.21972644   0.00000000
-128.56247089   6.21960905   0.00000000
-128.46247089   6.21949118   0.00000000
-128.36247089   6.21937283   0.00000000
-128.26247089   6.21925401   0.00000000
-128.16247089   6.21913471   0.00000000
-128.06247089   6.21901493   0.00000000
-127.96247089   6.21889467   0.00000000
-127.86247089   6.21877393   0.00000000
-127.76247089   6.21865270   0.00000000
-127.66247089   6.21853099   0.00000000
-127.56247089   6.21840879   0.00000000
-127.46247089   6.21828610   0.00000000
-127.36247089   6.21816292   0.00000000
-127.26247089   6.21803924   0.00000000
-127.16247089   6.21791508   0.00000000
-127.06247089   6.21779042   0.00000000
-126.96247089   6.21766526   0.00000000
-126.86247089   6.21753960   0.00000000
-126.76247089   6.21741345   0.00000000
-126.66247089   6.21728679   0.00000000
-126.56247089   6.21715963   0.00000000
-126.46247089   6.21703196   0.00000000
-126.36247089   6.21690379   0.00000000
-126.26247089   6.21677511   0.00000000
-126.16247089   6.21664592   0.00000000
-126.06247089   6.21651622   0.00000000
-125.96247089   6.21638601   0.00000000
-125.86247089   6.21625528   0.00000000
-125.76247089   6.21612403   0.00000000
-125.66247089   6.21599227   0.00000000
-125.56247089   6.21585999   0.00000000
-125.46247089   6.21572719   0.00000000
-125.36247089   6.21559386   0.00000000
-125.26247089   6.21546001   0.00000000
-125.16247089   6.21532564   0.00000000
-125.06247089   6.21519074   0.00000000
-124.96247089   6.21505531   0.00000000
-124.86247089   6.21491934   0.00000000
-124.76247089   6.21478285   0.00000000
-124.66247089   6.21464582   0.00000000
-124.56247089   6.21450826   0.00000000
-124.46247089   6.21437015   0.00000000
-124.36247089   6.21423151   0.00000000
-124.26247089   6.21409233   0.00000000
-124.16247089   6.21395261   0.00000000
-124.06247089   6.21381234   0.00000000
-123.96247089   6.21367152   0.00000000
-123.86247089   6.21353016   0.00000000
-123.76247089   6.21338825   0.00000000
-123.66247089   6.21324579   0.00000000
-123.56247089   6.21310277   0.00000000
-123.46247089   6.21295921   0.00000000
-123.36247089   6.21281508   0.00000000
-123.26247089   6.21267040   0.00000000
-123.16247089   6.21252516   0.00000000
-123.06247089   6.21237935   0.00000000
-122.96247089   6.21223299   0.00000000
-122.86247089   6.21208606   0.00000000
-122.76247089   6.21193856   0.00000000
-122.66247089   6.21179050   0.00000000
-122.56247089   6.21164187   0.00000000
-122.46247089   6.21149266   0.00000000
-122.36247089   6.21134288   0.00000000
-122.26247089   6.21119253   0.00000000
-122.16247089   6.21104160   0.00000000
-122.06247089   6.21089010   0.00000000
-121.96247089   6.21073801   0.00000000
-121.86247089   6.21058534   0.00000000
-121.76247089   6.21043209   0.00000000
-121.66247089   6.21027825   0.00000000
-121.56247089   6.21012382   0.00000000
-121.46247089   6.20996881   0.00000000
-121.36247089   6.20981321   0.00000000
-121.26247089   6.20965701   0.00000000
-121.16247089   6.20950022   0.00000000
-121.06247089   6.20934283   0.00000000
-120.96247089   6.20918485   0.00000000
-120.86247089   6.20902627   0.00000000
-120.76247089   6.20886708   0.00000000
-120.66247089   6.20870730   0.00000000
-120.56247089   6.20854691   0.00000000
-120.46247089   6.20838591   0.00000000
-120.36247089   6.20822430   0.00000000
-120.26247089   6.20806208   0.00000000
-120.16247089   6.20789926   0.00000000
-120.06247089   6.20773581   0.00000000
-119.96247089   6.20757176   0.00000000
-119.86247089   6.20740708   0.00000000
